freq                    	Gain_Gc2vo              	Phase_Gc2vo             
10                       	-118.4172312151957697779 	179.99426311515151155618 
10.115794542598985472637 	-118.4172311833570603312 	179.99419668603133004581 
10.232929922807540989993 	-118.4172311507766295335 	179.99412948653139210364 
10.351421666793438447485 	-118.4172311174373390941 	179.99406150963815775867 
10.471285480508996101889 	-118.4172310833214538661 	179.99399274552649785619 
10.592537251772888851065 	-118.4172310484109686968 	179.99392318549669766981 
10.715193052376063675979 	-118.4172310126872389446 	179.99385281948485726389 
10.839269140212035580362 	-118.4172309761313783838 	179.99378163918518680475 
10.964781961431850021427 	-118.4172309387240886736 	179.99370963420960833901 
11.091748152624010259615 	-118.4172309004454177739 	179.99363679511415625711 
11.220184543019634304528 	-118.4172308612752289037 	179.99356311349913539743 
11.350108156723150543144 	-118.4172308211925184196 	179.99348857765329512404 
11.481536214968828701899 	-118.4172307801762116242 	179.99341318061235028836 
11.614486138403428583388 	-118.4172307382045374879 	179.99333690747624814321 
11.748975549395295203681 	-118.4172306952551991799 	179.99325975383186460022 
11.885022274370184547365 	-118.4172306513054451216 	179.99318170571777386613 
12.022644346174129026394 	-118.4172306063319695113 	179.9931027539223293843  
12.161860006463680150546 	-118.4172305603109265348 	179.99302288763476553868 
12.302687708123816179295 	-118.4172305132179445764 	179.99294209699309021744 
12.445146117713850486552 	-118.4172304650279414773 	179.99286037061352772071 
12.589254117941672816983 	-118.4172304157154940185 	179.99277769789711101112 
12.735030810166616532797 	-118.4172303652544258057 	179.99269406779313840161 
12.882495516931340873157 	-118.4172303136179351668 	179.99260946939747896067 
13.031667784522992903362 	-118.4172302607787514717 	179.99252389166386478792 
13.182567385564070150394 	-118.4172302067087230171 	179.99243732286137742449 
13.3352143216332397202   	-118.4172301513792149308 	179.99234975125671098795 
13.489628825916534893281 	-118.4172300947609812738 	179.99226116614829606988 
13.645831365889245390122 	-118.417230036823909245  	179.99217155479863095024 
13.803842646028849472373 	-118.4172299775372891872 	179.99208090571229945454 
13.963683610559376901961 	-118.4172299168697151117 	179.99198920723426908808 
14.125375446227543818623 	-118.417229854789042065  	179.99189644685463917995 
14.288939585111029018094 	-118.4172297912622582317 	179.99180261257723145718 
14.454397707459275324027 	-118.4172297262558402053 	179.99170769117966983686 
14.621771744567181983143 	-118.4172296597351561331 	179.99161167143356010456 
14.791083881682073553065 	-118.4172295916650625713 	179.99151453950548784633 
14.962356560944334304963 	-118.417229522009364473  	179.99141628246599111662 
15.135612484362081175959 	-118.4172294507312130918 	179.99131688772533266274 
15.310874616820303373288 	-118.4172293777927222891 	179.9912163422092703513  
15.488166189124811467082 	-118.4172293031553522269 	179.99111463300297941714 
15.66751070108148979898  	-118.4172292267793693554 	179.9910117453544557975  
15.848931924611136423664 	-118.417229148624443269  	179.99090766660452800352 
16.032453906900414608572 	-118.4172290686490072176 	179.99080238256203756464 
16.218100973589301361244 	-118.4172289868106702215 	179.99069587951902349232 
16.405897731995395361082 	-118.4172289030661175957 	179.99058814292678221136 
16.595869074375606544436 	-118.4172288173708977865 	179.99047915885816451009 
16.78804018122560393067  	-118.4172287296795786915 	179.99036891304439222949 
16.982436524617444462137 	-118.4172286399456908157 	179.9902573903582094772  
17.17908387157588023797  	-118.4172285481215851632 	179.99014457658950050245 
17.378008287493752703767 	-118.4172284541586179785 	179.9900304564971520449  
17.579236139586924991818 	-118.4172283580070654807 	179.98991501419726546374 
17.782794100389228475478 	-118.4172282596156975387 	179.98979823633428054563 
17.988709151287878285075 	-118.4172281589326161111 	179.98968010558581909208 
18.197008586099833848948 	-118.417228055904303119  	179.9895606067745461587  
18.407720014689559207    	-118.4172279504761320368 	179.98943972446514294461 
18.620871366628676923938 	-118.4172278425922542056 	179.98931744264285725876 
18.836490894898005876712 	-118.4172277321954140916 	179.98919374442721164087 
19.054607179632473190622 	-118.4172276192270487627 	179.98906861442210924906 
19.275249131909358624171 	-118.417227503627373153  	179.98894203462972996022 
19.498445997580450494979 	-118.4172273853350532136 	179.98881398974543799341 
19.72422736114853591971  	-118.4172272642873053883 	179.9886844618699512921  
19.95262314968879380217  	-118.4172271404199960898 	179.98855343426075137359 
20.183663636815609265796 	-118.4172270136674853802 	179.98842088972605779418 
20.417379446695292699587 	-118.4172268839624564407 	179.98828680989248596234 
20.653801558105296720669 	-118.417226751236270843  	179.98815117784820927227 
20.892961308540396458966 	-118.4172266154184569587 	179.98801397519770262079 
21.134890398366469099756 	-118.4172264764370652301 	179.98787518344286695537 
21.379620895022320326007 	-118.4172263342183697432 	179.9877347847609883047  
21.627185237270204254401 	-118.4172261886869392811 	179.98759276010906660304 
21.877616239495523586811 	-118.4172260397656515352 	179.98744909171125527791 
22.130947096056377887408 	-118.4172258873755652075 	179.98730375915769741368 
22.387211385683393416457 	-118.4172257314358631675 	179.98715674358336968908 
22.646443075930594801548 	-118.4172255718638382405 	179.98700802535822163009 
22.908676527677730661026 	-118.4172254085748647867 	179.98685758581649452026 
23.173946499684781485939 	-118.4172252414824413336 	179.98670540379453086643 
23.442288153199221767409 	-118.4172250704979205693 	179.98655145960341883438 
23.713737056616551512889 	-118.4172248955306514517 	179.98639573307076489073 
23.988329190194903617339 	-118.4172247164879365755 	179.98623820322137589756 
24.266100950824153414942 	-118.4172245332747195334 	179.98607884917063870489 
24.547089156850304902946 	-118.4172243457938833444 	179.9859176494171322247  
24.83133105295570430826  	-118.4172241539461225557 	179.9857545840361296996  
25.118864315095802197675 	-118.4172239576295879715 	179.9855896297551112184  
25.40972705549305032946  	-118.4172237567402419245 	179.98542276573135723083 
25.703957827688633130947 	-118.4172235511716166911 	179.98525396915411533882 
26.001595631652719475824 	-118.4172233408146581723 	179.98508321828305156487 
26.302679918953817406191 	-118.4172231255579390563 	179.98491048989654927936 
26.607250597988098661517 	-118.4172229052870761734 	179.98473576164593623616 
26.91534803926915486727  	-118.4172226798855689367 	179.98455901035146098366 
27.227013080779123299635 	-118.4172224492337619495 	179.98438021182255397434 
27.542287033381661842668 	-118.4172222132092997526 	179.98419934316436297195 
27.861211686297700396153 	-118.4172219716872120898 	179.98401638014533432397 
28.183829312644537168353 	-118.4172217245392602081 	179.98383129872212293776 
28.510182675039096977798 	-118.4172214716345763463 	179.98364407397102127106 
28.840315031266058554138 	-118.4172212128389105601 	179.98345468105677014137 
29.174270140011667962199 	-118.4172209480151423122 	179.98326309535352152125 
29.512092266663856321429 	-118.417220677022783093  	179.98306929098461637295 
29.853826189179596184431 	-118.4172203997182464263 	179.98287324256071428863 
30.199517204020160932032 	-118.4172201159544783877 	179.9826749239208822928  
30.549211132155132730759 	-118.4172198255809007605 	179.98247430871376195682 
30.902954325135905122579 	-118.4172195284436526208 	179.98227137075207338057 
31.260793671239550661767 	-118.4172192243852634874 	179.9820660828704319556  
31.622776601683789010622 	-118.4172189132443975268 	179.98185841759220693348 
31.988951096913979199599 	-118.4172185948560525048 	179.98164834800451217234 
32.3593656929628252783   	-118.4172182690515597869 	179.98143584561842089897 
32.73406948788382209159  	-118.4172179356580443255 	179.98122088271429674933 
33.1131121482591126437   	-118.4172175944987941421 	179.9810034306166812712  
33.496543915782773126466 	-118.4172172453929476887 	179.98078346063635990504 
33.884415613920253917968 	-118.4172168881553375286 	179.98056094336456567362 
34.276778654645035260273 	-118.4172165225965329682 	179.98033584940984042078 
34.673685045253165526447 	-118.4172161485228400579 	179.98010814893325459707 
35.075187395256804734345 	-118.4172157657357900007 	179.9798778120143367687  
35.481338923357547798787 	-118.4172153740325086346 	179.97964480786379226629 
35.892193464500522281924 	-118.4172149732051906312 	179.97940910559611893405 
36.3078054770101417148   	-118.4172145630414405559 	179.97917067401502322355 
36.728230049808459511951 	-118.4172141433237186448 	179.97892948148677305653 
37.153522909717253241979 	-118.4172137138294544911 	179.97868549607488830588 
37.58374042884441479373  	-118.4172132743310328351 	179.97843868543651524305 
38.018939632056117261527 	-118.4172128245953103942 	179.978189016843657555   
38.459178204535355405369 	-118.417212364383956924  	179.97793645702816434095 
38.904514499428060503305 	-118.4172118934527588863 	179.97768097302531487003 
39.355007545577741723264 	-118.4172114115521736721 	179.97742253033871406842 
39.810717055349719828428 	-118.4172109184266616921 	179.97716109534110273671 
40.271703432545905343432 	-118.4172104138148142738 	179.97689663281022376395 
40.738027780411272260608 	-118.417209897448927336  	179.97662910788582735222 
41.209751909733014940684 	-118.417209369055285606  	179.97635848520866375111 
41.686938347033539287168 	-118.4172088283538073483 	179.97608472899625553509 
42.169650342858219005393 	-118.4172082750577601473 	179.97580780255987065175 
42.657951880159274082871 	-118.4172077088737182748 	179.97552766959771020083 
43.151907682776524666224 	-118.4172071295015058467 	179.97524429284965208353 
43.651583224016604845019 	-118.4172065366340262926 	179.97495763454421080496 
44.157044735331254514676 	-118.4172059299567365542 	179.97466765716117720331 
44.668359215096316461313 	-118.4172053091481018328 	179.97437432181291683264 
45.185594437492241581822 	-118.4172046738789561005 	179.97407758975407432445 
45.708818961487509113795 	-118.4172040238124878897 	179.97377742178377957316 
46.238102139926027689398 	-118.4172033586038992325 	179.97347377780945976156 
46.773514128719824611835 	-118.4172026779005477692 	179.97316661802844350859 
47.315125896148053641355 	-118.4172019813415630551 	179.97285590115765785413 
47.863009232263841852273 	-118.4172012685575907653 	179.97254158655474043371 
48.417236758409941899117 	-118.4172005391706505861 	179.97222363226430275063 
48.977881936844617882798 	-118.4171997927941077933 	179.97190199609204341868 
49.545019080479015372021 	-118.4171990290321048178 	179.97157663576160757657 
50.118723362727223502588 	-118.4171982474797033547 	179.97124750760954725592 
50.699070827470436029216 	-118.4171974477226285671 	179.97091456847508084138 
51.286138399136483201346 	-118.417196629336686442  	179.97057777400345912611 
51.880003892896112915878 	-118.4171957918880480065 	179.9702370796173056533  
52.480746024977250385746 	-118.4171949349325814183 	179.96989244012530662076 
53.088444423098835045494 	-118.4171940580160509171 	179.96954380992951882945 
53.703179637025272086248 	-118.4171931606733494391 	179.96919114256519378614 
54.325033149243317609489 	-118.4171922424287686226 	179.96883439164560058998 
54.954087385762449002868 	-118.4171913027954303743 	179.96847350957978051156 
55.590425727040361891795 	-118.4171903412751305495 	179.96810844867579248785 
56.234132519034915276279 	-118.4171893573580121028 	179.96773916050062780414 
56.885293084384144890464 	-118.4171883505224087685 	179.96736559607342087475 
57.543993733715694816055 	-118.4171873202344613674 	179.96698770610495898836 
58.210321777087145278529 	-118.4171862659479472768 	179.96660544023401939739 
58.88436553555889929612  	-118.4171851871037830506 	179.96621874790824335832 
59.566214352901042161648 	-118.4171840831299959973 	179.96582757757806803056 
60.255958607435779583739 	-118.4171829534411983786 	179.96543187793406559649 
60.953689724016925310934 	-118.4171817974383884575 	179.96503159617671485648 
61.659500186148221700932 	-118.4171806145087089135 	179.96462667912729216368 
62.373483548241928531297 	-118.4171794040248926194 	179.96421707351527174978 
63.095734448019335616209 	-118.4171781653451063221 	179.96380272473626860119 
63.826348619054876110113 	-118.4171768978125669491 	179.9633835780062156573  
64.565422903465560011682 	-118.4171756007552147594 	179.96295957763578599042 
65.313055264747234218703 	-118.4171742734853438606 	179.96253066755227223439 
66.069344800759594704687 	-118.4171729152991474621 	179.96209679084296340079 
66.834391756861450062388 	-118.4171715254765189229 	179.96165788986726852272 
67.608297539198176195896 	-118.4171701032805685827 	179.96121390673388873438 
68.391164728142925355314 	-118.4171686479571548034 	179.96076478232521367318 
69.183097091893642982541 	-118.4171671587346708066 	179.96031045722324392955 
69.984199600227341875325 	-118.417165634823476239  	179.95985087118725687105 
70.794578438413793719519 	-118.4171640754155561126 	179.95938596335042802821 
71.614341021290201183547 	-118.4171624796840518457 	179.95891567195471338891 
72.443596007499010624997 	-118.4171608467829059919 	179.95843993483521217058 
73.282453313890400181663 	-118.4171591758463080168 	179.95795868876882650511 
74.13102413009174540548  	-118.4171574659882821834 	179.95747187006088552153 
74.989420933245583000826 	-118.4171557163021617498 	179.95697941405313713403 
75.85775750291837482564  	-118.4171539258602479094 	179.95648125556493823751 
76.736148936181905355625 	-118.4171520937132413565 	179.95597732852903050116 
77.624711662869174233492 	-118.4171502188896596408 	179.95546756632361962147 
78.52356346100718553771  	-118.4171483003954108426 	179.95495190101360094559 
79.432823472428154332192 	-118.4171463372132393488 	179.95443026456763391252 
80.352612218561731083355 	-118.4171443283022853166 	179.95390258770027003266 
81.283051616409935036245 	-118.4171422725972604439 	179.95336880040531468694 
82.224264994707127129914 	-118.4171401690082632285 	179.95282883208491853111 
83.176377110267111447683 	-118.4171380164198694729 	179.95228261096062283286 
84.139514164519511041362 	-118.4171358136906349046 	179.95173006475442889496 
85.113803820237663444459 	-118.4171335596527114831 	179.95117112022276728567 
86.099375218460068026616 	-118.4171312531109379051 	179.95060570324102400264 
87.096358995608056829951 	-118.4171288928422569597 	179.95003373880226149595 
88.104887300801394189875 	-118.4171264775952181481 	179.94945515107545475075 
89.125093813374547835338 	-118.4171240060891392432 	179.94886986353947122552 
90.157113760595692042443 	-118.4171214770135662775 	179.94827779841344295164 
91.20108393559095816272  	-118.4171188890275914218 	179.94767887741005552016 
92.257142715476305738775 	-118.4171162407587729604 	179.94707302095980594459 
93.325430079699103202984 	-118.4171135308031495015 	179.94646014872759565151 
94.406087628592331384425 	-118.4171107577236341513 	179.9458401796347857271  
95.499258602143584084843 	-118.4171079200498724049 	179.94521303126583688936 
96.605087898981324201486 	-118.4171050162772758085 	179.944578620675770253   
97.723722095581067037529 	-118.4171020448661693081 	179.9439368637338247936  
98.855309465693892434501 	-118.417099004240924387  	179.94328767517441747259 
100                      	-118.4170958927893764212 	179.94263096921537226081 
101.1579454259898369628  	-118.4170927088616451783 	179.94196665863464090762 
102.32929922807541345264 	-118.4170894507696090159 	179.94129465540945034263 
103.51421666793436315857 	-118.4170861167855406393 	179.94061487047594027899 
104.71285480508996101889 	-118.4170827051417518305 	179.93992721359953179672 
105.92537251772887429979 	-118.4170792140291723626 	179.93923159374901388219 
107.15193052376065452336 	-118.4170756415966820896 	179.93852791863031370667 
108.39269140212033448734 	-118.4170719859501588189 	179.93781609499023943499 
109.64781961431852153055 	-118.4170682451510288047 	179.93709602843236439185 
110.91748152624008127987 	-118.417064417215911476  	179.93636762358212877189 
112.20184543019635725614 	-118.4170605001149851887 	179.93563078374177166552 
113.5010815672314947733  	-118.4170564917712766828 	179.93488541130082580821 
114.81536214968828346628 	-118.417052390059325262  	179.93413140747637157801 
116.14486138403427162302 	-118.4170481928043727748 	179.93336867221805164263 
117.48975549395296980038 	-118.4170438977806156799 	179.93259710449589761083 
118.85022274370183481551 	-118.4170395027108071417 	179.93181660183159920052 
120.22644346174131158023 	-118.4170350052644238303 	179.93102706099907095449 
121.61860006463678018918 	-118.4170304030566285292 	179.93022837719161088899 
123.02687708123818310924 	-118.4170256936472185316 	179.92942044455682548687 
124.4514611771384977601  	-118.4170208745389629712 	179.9286031559481102704  
125.89254117941675303882 	-118.4170159431765370073 	179.92777640299004815461 
127.3503081016661724334  	-118.4170108969451149505 	179.92694007611871143126 
128.82495516931342649514 	-118.4170057331688497015 	179.92609406444051955987 
130.31667784522994679719 	-118.4170004491096790389 	179.92523825578521723401 
131.82567385564072992565 	-118.4169950419656913709 	179.92437253669808683298 
133.35214321633239364928 	-118.4169895088697046504 	179.92349679234914106019 
134.89628825916531695839 	-118.4169838468877742343 	179.92261090674350043628 
136.4583136588924503485  	-118.4169780530176012689 	179.92171476232206828172 
138.0384264602884627493  	-118.4169721241775619092 	179.92080824030443864103 
139.63683610559377257232 	-118.4169660572478477434 	179.9198912205348506177  
141.25375446227539555366 	-118.4169598489869201785 	179.9189635813187067015  
142.88939585111029373365 	-118.4169534961345675583 	179.91802519976624807896 
144.54397707459270350228 	-118.4169469952686029046 	179.91707595141105002767 
146.217717445671837595   	-118.416940342986606538  	179.91611571037759631508 
147.91083881682072842523 	-118.4169335357515251417 	179.91514434937852229268 
149.62356560944334660235 	-118.4169265699604807196 	179.91416173962679181386 
151.35612484362079044331 	-118.4169194418898172216 	179.91316775075134160033 
153.10874616820302662745 	-118.4169121477760029393 	179.91216225114743565427 
154.88166189124811467082 	-118.4169046837818939366 	179.91114510726498565418 
156.67510701081494062237 	-118.4168970459063530143 	179.91011618436900221241 
158.48931924611133581493 	-118.4168892301119910826 	179.90907534593887362462 
160.32453906900417450743 	-118.4168812322475048404 	179.90802245410483806154 
162.18100973589298519073 	-118.4168730480973152908 	179.90695736912644520089 
164.05897731995395361082 	-118.4168646732902061558 	179.90587994976246477563 
165.9586907437560512335  	-118.4168561034128828169 	179.90479005322998773408 
167.88040181225608193927 	-118.4168473339002218836 	179.90368753495559417388 
169.82436524617443751595 	-118.4168383601219289858 	179.90257224878129704848 
171.79083871575883790683 	-118.4168291773093528718 	179.90144404672489031327 
173.7800828749375341431  	-118.4168197805937552403 	179.90030277922323875828 
175.7923613958693067616  	-118.4168101649765389993 	179.89914829499196002871 
177.82794100389227764936 	-118.4168003253771814798 	179.89798044090829876041 
179.88709151287875442904 	-118.4167902565832122264 	179.89679906198995240629 
181.97008586099832427863 	-118.4167799532300193732 	179.89560400172766208016 
184.07720014689556364829 	-118.4167694098634058264 	179.89439510153601986531 
186.20871366628676923938 	-118.4167586209091780347 	179.89317220113997564113 
